<Actel_Data_File>
    <format name="NVM File" version="01.00.00"/>
    <header>
        <die>
            M2GL025
        </die>
        <family>
            IGLOO2
        </family>
        <module>
            
        </module>
        <package>
            256 VF
        </package>
        <version>
            12.800.0.16
        </version>
    </header>
    <nvm>
        <region name="MiV_Boot" address="0x000000" retrieveAddressFromFile="false" size="12400" format="HEX" type="Data Storage" wordSize="8" numberWords="12400" memFile="C:\Users\cheec\Desktop\Master\RISC-V_FreeRTOS_Computer_Vision\SCCB Testing\IGL2_MiV_FreeRTOS_Demo\hex\Creative_MiV_FreeRTOS_Demo.hex" memType="INTELHEX" memFileTimeStamp="" clientType="public" program="true">
            6f00c0006f0000006f00c002970200009382820273905230735000307350
            4030970100209381017e17b101201301811b6f00001e130101f823201100
            23222100232431002326410023285100232a6100232c7100232e81002320
            91022322a1022324b1022326c1022328d102232ae102232cf102232e0103
            2320110523222105232431052326410523285105232a6105232c7105232e
            8105232091072322a1072324b1072326c1072328d107232ae107232cf107
            f3221034232e510673252034f325103413060100ef00004b73101534b722
            00009382028073a002308320010003214100832181000322c10083220101
            03234101832381010324c1018324010203254102832581020326c1028326
            010303274103832781030328c103832801040329410483298104032ac104
            832a0105032b4105832b8105032cc105832c0106032d4106832d8106032e
            c106832e0107032f4107832f81071301010873002030130101fe232e8100
            130401022326a4fe2324b4fe2322c4fe6f00c0028327c4fe03a707008327
            84fe23a0e7008327c4fe938747002326f4fe832784fe938747002324f4fe
            032784fe832744fee3f8e7fc130000000324c10113010102678000001301
            01fd2326810213040103232ea4fc232cb4fc8327c4fd2326f4fe6f008001
            8327c4fe23a007008327c4fe938747002326f4fe0327c4fe832784fde3f2
            e7fe130000000324c1021301010367800000130101fe232e1100232c8100
            13040102b7370060938707ec2326f4fe8327c4fe2320f4fe232204fe2324
            04fe13860182b707008093850700b7370060138507fdeff01ff11386018a
            93850182b7370060138507ffeff0dfef938501911385018aeff01ff5b797
            01809385071e13850191eff01ff4930704fe9385070013051000ef209028
            130000008320c101032481011301010267800000130101ff232681001304
            0101130000000324c1001301010167800000130101fd2326810213040103
            232ea4fcf32740f12326f4fe8327c4fe2324f4fe370700408327c4fd93d7
            5700832684fe93965600b386f600b717000093870780b387f60093972700
            b307f70083a707002322f4fe8327c4fd93f7f70113071000b317f70093c7
            f7ff032744feb377f7002322f4fe370700408327c4fd93d75700832684fe
            93965600b386f600b717000093870780b387f60093972700b307f7000327
            44fe23a0e700130000000324c1021301010367800000130101fe232e8100
            13040102f32740f12326f4fe8327c4fe2324f4fe37070040832784fe9387
            07209397c700b307f70083a74700138507000324c1011301010267800000
            130101fd2326810213040103232ea4fcf32740f12326f4fe8327c4fe2324
            f4fe37070040832784fe938707209397c700b307f7000327c4fd23a2e700
            130000000324c1021301010367800000130101fe232e810013040102f367
            04302326f4fe130000000324c1011301010267800000130101fe232e1100
            232c81001304010293070008f3b747302326f4feef10003837070044b7c7
            0000b307f70003a8c7ff83a787ff83a5018a03a6418a37050044732740f1
            2324e4fe832884feb386b700138306003333f3003307c800b307e3001387
            0700938706001308070037170000130707803387e800131737003307e500
            2320f7002322070193070008f3a747302322f4fe130000008320c1010324
            81011301010267800000130101fe232e1100232c810013040102eff05fe9
            2326a4fea30504feb70700800327c4fe1317270093870702b307f70083a7
            0700e780070093070500a305f4fe0325c4feeff05fea0347b4fe93071000
            6316f7000325c4feeff05fd9130000008320c10103248101130101026780
            0000130101ff232611002324810013040101ef104038b707004423a00700
            130000008320c100032481001301010167800000130101fb232611042324
            810413040105232ea4fa232cb4fa8327c4fb63d207020327c4fbb7070080
            93c7f7ff3377f7009307b0006316f700eff09ff26f00800a8327c4fb63d2
            07020327c4fbb707008093c7f7ff3377f700930770006316f700eff09fe5
            6f0000088327c4fb63d207020327c4fbb707008093c7f7ff3377f7009307
            30006316f700eff09ff46f008005f32740342326f4fe8327c4fe2324f4fe
            f32730342322f4fe832744fe2320f4fef3275030232ef4fc8327c4fd232c
            f4fcf3270034232af4fc832744fd2328f4fcf32700302326f4fc8327c4fc
            2324f4fc73001000832784fb138507008320c10403248104130101056780
            0000130101ff232681001304010193070000138507000324c10013010101
            67800000130101ff232681001304010193070000138507000324c1001301
            010167800000130101ff232681001304010193070000138507000324c100
            1301010167800000130101ff232681001304010193070000138507000324
            c1001301010167800000130101ff23268100130401019307000013850700
            0324c1001301010167800000130101ff2326810013040101930700001385
            07000324c1001301010167800000130101ff232681001304010193070000
            138507000324c1001301010167800000130101ff23268100130401019307
            0000138507000324c1001301010167800000130101ff2326810013040101
            93070000138507000324c1001301010167800000130101ff232681001304
            010193070000138507000324c1001301010167800000130101ff23268100
            1304010193070000138507000324c1001301010167800000130101ff2326
            81001304010193070000138507000324c1001301010167800000130101ff
            232681001304010193070000138507000324c10013010101678000001301
            01ff232681001304010193070000138507000324c1001301010167800000
            130101ff232681001304010193070000138507000324c100130101016780
            0000130101ff232681001304010193070000138507000324c10013010101
            67800000130101ff232681001304010193070000138507000324c1001301
            010167800000130101ff232681001304010193070000138507000324c100
            1301010167800000130101ff232681001304010193070000138507000324
            c1001301010167800000130101ff23268100130401019307000013850700
            0324c1001301010167800000130101ff2326810013040101930700001385
            07000324c1001301010167800000130101ff232681001304010193070000
            138507000324c1001301010167800000130101ff23268100130401019307
            0000138507000324c1001301010167800000130101ff2326810013040101
            93070000138507000324c1001301010167800000130101ff232681001304
            010193070000138507000324c1001301010167800000130101ff23268100
            1304010193070000138507000324c1001301010167800000130101ff2326
            81001304010193070000138507000324c1001301010167800000130101ff
            232681001304010193070000138507000324c10013010101678000001301
            01ff232681001304010193070000138507000324c1001301010167800000
            2320b500678000000325050067800000138e0600331ebe00337ece000323
            05009303060093c3f3ff337373003363c301232065006780000003250500
            3375c5003355b500678000002310b500678000000315050067800000138e
            0600331ebe00337ece00031305009303060093c3f3ff337373003363c301
            2310650067800000031505003375c5003355b500678000002300b5006780
            00000305050067800000138e0600331ebe00337ece000303050093030600
            93c3f3ff337373003363c3012300650067800000030505003375c5003355
            b50067800000130101fd232611022324810213040103232ea4fc232cb4fc
            9307060013870600231bf4fc93070700a30af4fc8327c4fd638a070c0347
            54fd9307700063e4e70c035764fdb7270000637ef70a832784fd13878700
            835764fd93f7f70f9385070013050700eff05ff5832784fd9386c7000347
            54fd835764fd93d7574093f7877fb367f7009385070013850600eff0dff2
            8327c4fd032784fd23a0e7008327c4fd83a707009387070113850700eff0
            5ff19307050093f72700a307f4fe6f0080038327c4fd83a7070093874700
            13850700eff01fef8327c4fd83a707009387070113850700eff0dfed9307
            050093f72700a307f4fe8347f4fee39407fc8327c4fd2382070013000000
            8320c102032481021301010367800000130101fd23261102232481021304
            0103232ea4fc232cb4fc232ac4fc8327c4fd63800708832784fd638c0706
            832744fd63880706232604fe6f00c0058327c4fd83a70700938707011385
            0700eff0dfe59307050093f71700a305f4fe8347b4fee38e07fc8327c4fd
            83a60700032784fd8327c4feb307f70083c707009385070013850600eff0
            dfe18327c4fe938717002326f4fe0327c4fe832744fde360f7fa13000000
            8320c102032481021301010367800000130101fd23261102232481021304
            0103232ea4fc232cb4fc8327c4fd63800708832784fd638c0706232604fe
            6f00c0058327c4fd83a707009387070113850700eff05fdb9307050093f7
            1700a305f4fe8347b4fee38e07fc8327c4fd83a60700032784fd8327c4fe
            b307f70083c707009385070013850600eff05fd78327c4fe938717002326
            f4fe032784fd8327c4feb307f70083c70700e39c07f8130000008320c102
            032481021301010367800000130101fd232611022324810213040103232e
            a4fc232cb4fc232ac4fca30704fe832784fd2324f4fe8327c4fd032784fd
            23a0e7008327c4fd032744fd23a2e700a30704fe832784fd2324f4fe6f00
            800293050000032584feeff05fce832784fe938747002324f4fe8347f4fe
            93871700a307f4fe0347f4fe9307f001e3fae7fc8327c4fd83a747001307
            1000638ae7021307100063e4e706130720006384e7006f00000c8327c4fd
            83a70700938707089305f0ff13850700eff05fbf6f00400a8327c4fd83a7
            070013870708b70701009385f7ff13050700eff0dfc18327c4fd83a70700
            13874708b70701009385f7ff13050700eff01fc06f0080068327c4fd83a7
            0700938707089305f00f13850700eff0dfc28327c4fd83a7070093874708
            9305f00f13850700eff05fc18327c4fd83a70700938787089305f00f1385
            0700eff0dfbf8327c4fd83a707009387c7089305f00f13850700eff05fbe
            13000000130000008320c102032481021301010367800000130101fd2326
            11022324810213040103232ea4fc232cb4fc93070600a30bf4fc8327c4fd
            83a7470013071000638ae7081307100063e0e714130720006384e7006f00
            801e8327c4fd83a707009387070a13850700eff0dfae2326a4fe834774fd
            6394070213071000832784fdb317f70093c7f7ff138707008327c4feb3f7
            e7002326f4fe6f00000213071000832784fdb317f700138707008327c4fe
            b3e7e7002326f4fe8327c4fd83a707009387070a8325c4fe13850700eff0
            1fa86f00c0168327c4fd03a70700832784fd93d7470093972700b307f700
            9387070a2322f4fe032544feeff05faa930705002315f4fe834774fd6390
            0704832784fd93f7f70013071000b317f7009397070193d7074193c7f7ff
            13970701135707418317a4feb377f7009397070193d707412315f4fe6f00
            0003832784fd93f7f70013071000b317f70013970701135707418317a4fe
            b367f7009397070193d707412315f4fe8357a4fe93850700032544feeff0
            5fa16f00800b8327c4fd03a70700832784fd93d7370093972700b307f700
            9387070a2320f4fe032504feeff09fa393070500a304f4fe834774fd6390
            0704832784fd93f7770013071000b317f7009397870193d7874193c7f7ff
            1397870113578741830794feb377f7009397870193d78741a304f4fe6f00
            0003832784fd93f7770013071000b317f7001397870113578741830794fe
            b367f7009397870193d78741a304f4fe834794fe93850700032504feeff0
            9f9a13000000130000008320c102032481021301010367800000130101fd
            232611022324810213040103232ea4fc232cb4fc8327c4fd83a707002326
            f4fe032784fd9307f00163e0e704832784fd939727000327c4feb307f700
            2326f4fe0325c4feeff0df94930705002324f4fe832784fe93e787002324
            f4fe832584fe0325c4feeff05f92130000008320c1020324810213010103
            67800000130101fc232e1102232c8102130401042326a4fc232204feef00
            906d83a7818b63980700ef0040281307100023ace18a8327c4fc638a0702
            93078000138707008327c4fcb387e7002326f4fc8327c4fc93f73700638a
            07008327c4fc93f7c7ff938747002326f4fc8327c4fc638407140327c4fc
            b79701009387b7ff63ece7129387818a2324f4fe83a7818a2326f4fe6f00
            80018327c4fe2324f4fe8327c4fe83a707002326f4fe8327c4fe83a74700
            0327c4fc63f8e7008327c4fe83a70700e39a07fc0327c4fe9387018b6304
            f70e832784fe83a7070013078000b387e7002322f4fe8327c4fe03a70700
            832784fe23a0e7008327c4fe03a747008327c4fcb307f740130780001317
            17006376f7080327c4fe8327c4fcb307f700232ef4fc8327c4fe03a74700
            8327c4fc3307f7408327c4fd23a2e7008327c4fe0327c4fc23a2e7008327
            c4fd83a74700232cf4fc9387818a2320f4fe6f000001832704fe83a70700
            2320f4fe832704fe83a7070083a74700032784fde3e2e7fe832704fe03a7
            07008327c4fd23a0e700832704fe0327c4fd23a0e700b707008003a70700
            8327c4fe83a747003307f740b707008023a0e700ef005056832744fe6394
            0700ef10102a832744fe138507008320c103032481031301010467800000
            130101fd232611022324810213040103232ea4fc8327c4fd2324f4fe8327
            c4fd638c070893078000b307f040032784feb307f7002324f4fe832784fe
            2322f4feef00504d832744fe83a747002320f4fe9387818a2326f4fe6f00
            00018327c4fe83a707002326f4fe8327c4fe83a7070083a74700032704fe
            e3e2e7fe8327c4fe03a70700832744fe23a0e7008327c4fe032744fe23a0
            e700832744fe03a74700b707008083a707003307f700b707008023a0e700
            ef009048130000008320c102032481021301010367800000130101fe232e
            810013040102b70700809387471193f7c7ff2326f4fe0327c4fe23a4e18a
            9387818a23a207009387018b379701001307c7ff23a2e70023a8018a8327
            c4fe2324f4fe832784fe379701001307c7ff23a2e700832784fe1387018b
            23a0e700130000000324c1011301010267800000130101fe232e81001304
            0102f32740f12326f4fe8327c4fe2324f4fef36744302322f4fe37070044
            832784fe93972700b307f7001307100023a0e700130000000324c1011301
            010267800000130101ff232681001304010173700430b707008083a74700
            13871700b707008023a2e700130000000324c10013010101678000001301
            01ff2326810013040101b707008083a747001387f7ffb707008023a2e700
            b707008083a747006394070073600430130000000324c100130101016780
            0000130101fe232e8100130401023706008003268600032606002324c4fe
            232604fe3706008003268600032646009306060013070000139806009307
            0000032784fe3367f7002324e4fe0327c4feb36707012326f4fe832684fe
            0327c4feb7c500009385053513060000b387b600138507003335d5003308
            c70033070501130807002324f4fe232604ffb707008083a7c700032784fe
            23a0e7008327c4fe13d3070093030000b707008083a7c7001307030023a2
            e7009307000873a04730130000000324c1011301010267800000130101fe
            232e8100130401023706008003268600032606002324c4fe232604fe3706
            0080032686000326460093060600130700001398060093070000032784fe
            3367f7002324e4fe0327c4feb36707012326f4fe832684fe0327c4feb7c5
            00009385053513060000b387b600138507003335d5003308c70033070501
            130807002324f4fe232604ffb707008083a7c700032784fe23a0e7008327
            c4fe13d3070093030000b707008083a7c7001307030023a2e70093070008
            73a04730130000000324c1011301010267800000130101ff232681001304
            0101b707008003a747009307f0ff6306f700737004306f00000073700430
            6f000000130101fe232e8100130401022326a4fe2324b4fe2322c4fe8327
            c4fe9387c7ff2326f4fe032784fe8327c4fe23a0e7008327c4fe938787fa
            2326f4fe032744fe8327c4fe23a0e7008327c4fe938787fe2326f4fe9387
            0100138707008327c4fe23a0e7008327c4fe938747ff2326f4feb7170060
            1387c7708327c4fe23a0e7008327c4fe138507000324c101130101026780
            0000130101ff23261100232481001304010183a2018c23a0c200eff01fd9
            ef0090229307050063840700ef00904003a1018c032101008322c1077390
            1234832001000322c1008322010103234101832381010324c10183240102
            03254102832581020326c1028326010303274103832781030328c1038328
            01040329410483298104032ac104832a0105032b4105832b8105032cc105
            832c0106032d4106832d8106032ec106832e0107032f4107832f81071301
            010873002030130000008320c100032481001301010167800000130101ff
            232611002324810013040101eff09fd9b707008023a207001307100023ae
            e18aefe01fb5eff05fbf93070000138507008320c1000324810013010101
            67800000130101ff23261100232481001304010103a7c18b930710006318
            f7001307200023aee18a6f00000183a2018c23a0c200ef00102f03a1018c
            032101008322c10773901234832001000322c10083220101032341018323
            81010324c1018324010203254102832581020326c1028326010303274103
            832781030328c103832801040329410483298104032ac104832a0105032b
            4105832b8105032cc105832c0106032d4106832d8106032ec106832e0107
            032f4107832f8107130101081301c1ff23205100b702004423a002008322
            01001301410073002030130000008320c100032481001301010167800000
            130101ff232611002324810013040101eff0dfad130000008320c1000324
            81001301010167800000130101fe232e8100130401022326a4fe8327c4fe
            138787008327c4fe23a2e7008327c4fe1307f0ff23a4e7008327c4fe1387
            87008327c4fe23a6e7008327c4fe138787008327c4fe23a8e7008327c4fe
            23a00700130000000324c1011301010267800000130101fe232e81001304
            01022326a4fe8327c4fe23a80700130000000324c1011301010267800000
            130101fd2326810213040103232ea4fc232cb4fc8327c4fd83a747002326
            f4fe832784fd0327c4fe23a2e7008327c4fe03a78700832784fd23a4e700
            8327c4fe83a78700032784fd23a2e7008327c4fe032784fd23a4e7008327
            84fd0327c4fd23a8e7008327c4fd83a70700138717008327c4fd23a0e700
            130000000324c1021301010367800000130101fd2326810213040103232e
            a4fc232cb4fc832784fd83a707002324f4fe032784fe9307f0ff631af700
            8327c4fd83a707012326f4fe6f0040038327c4fd938787002326f4fe6f00
            00018327c4fe83a747002326f4fe8327c4fe83a7470083a70700032784fe
            e372f7fe8327c4fe03a74700832784fd23a2e700832784fd83a747000327
            84fd23a4e700832784fd0327c4fe23a4e7008327c4fe032784fd23a2e700
            832784fd0327c4fd23a8e7008327c4fd83a70700138717008327c4fd23a0
            e700130000000324c1021301010367800000130101fd2326810213040103
            232ea4fc8327c4fd83a707012326f4fe8327c4fd83a747000327c4fd0327
            870023a4e7008327c4fd83a787000327c4fd0327470023a2e7008327c4fe
            83a747000327c4fd631af7008327c4fd03a787008327c4fe23a2e7008327
            c4fd23a807008327c4fe83a707001387f7ff8327c4fe23a0e7008327c4fe
            83a70700138507000324c1021301010367800000130101fd232681021304
            0103232ea4fc232cb4fc232ac4fc0327c4fd832744fdb367f70093f73700
            63980706832784fd93f7f70f2322f4fe832744fe93978700032744feb367
            f7002322f4fe832744fe93970701032744feb367f7002322f4fe8327c4fd
            2326f4fe6f0080018327c4fe138747002326e4fe032744fe23a0e7000327
            c4fd832744fdb307f7000327c4fee36ef7fc6f0000048327c4fd2324f4fe
            6f000002832784fe138717002324e4fe032784fd13178701135787412380
            e7000327c4fd832744fdb307f700032784fee36af7fc8327c4fd13850700
            0324c1021301010367800000130101fc232e1102232c810213040104232e
            a4fc232cb4fc2328d4fc2326e4fc2324f4fc232204fd232014fd93070600
            231bf4fc8327c4fd63960700737004306f0000000327c4fc9307400063f6
            e700737004306f000000835764fd832544fc13850700ef0010282324a4fe
            832784fe63820716832784fe03a70703835664fdb70700409387f7ffb387
            f60093972700b307f7002322f4fe832744fe93f7c7ff2322f4fe832744fe
            93f7370063860700737004306f000000835764fd13870700832604fc0326
            c4fc832584fd032584feef00406f032604fd8325c4fd032544feeff01f90
            13070500832784fe23a0e700832784fc63880700832784fc032784fe23a0
            e700eff04fea83a7018d1387170023a8e18c83a7018c63900702032784fe
            23a0e18c03a7018d930710006316f702ef00c07c6f00400283a7c18d639e
            070083a7018c83a7c7020327c4fc6366f700032784fe23a0e18c83a7c18e
            1387170023a6e18e03a7c18e832784fe23a4e704832784fe03a7c70283a7
            818d63f8e700832784fe03a7c70223ace18c832784fe03a7c70293070700
            93972700b387e7009397270037970180130707113387e700832784fe9387
            47009385070013050700eff05fb6930710002326f4feeff00fe16f00c000
            9307f0ff2326f4fe0327c4fe930710006310f70283a7c18d638c070083a7
            018c83a7c7020327c4fc63f4e700eff01fa78327c4fe138507008320c103
            032481031301010467800000130101fd232611022324810213040103232e
            a4fc232604fe8327c4fd6384070483a7418f63860700737004306f000000
            ef00400e83a7418d0327c4fdb307f7002324f4fe83a7018c938747001385
            0700eff05fc1032584feef00807eef00000e2326a4fe8327c4fe63940700
            eff09f9e130000008320c102032481021301010367800000130101fe232e
            1100232c8100130401029308000013080000930700001307000093060000
            13060040b7350060938585ec372500601305854eeff09fd22326a4fe0327
            c4fe930710006312f702737004301307f0ff23a8e18e1307100023aee18c
            23aa018ceff0df836f0040018327c4fe63960700737004306f0000001300
            00008320c101032481011301010267800000130101ff2326810013040101
            83a7418f1387170023aae18e130000000324c10013010101678000001301
            01fe232e1100232c810013040102232604fe83a7418f6396070073700430
            6f000000eff0cfc283a7418f1387f7ff23aae18e83a7418f6396071083a7
            018d638207106f00800ab79701809387c71983a7c70083a7c7002324f4fe
            832784fe9387870113850700eff01fac832784fe9387470013850700eff0
            1fab832784fe03a7c70283a7818d63f8e700832784fe03a7c70223ace18c
            832784fe03a7c7029307070093972700b387e70093972700379701801307
            07113387e700832784fe938747009385070013050700eff01f90832784fe
            03a7c70283a7018c83a7c7026366f7001307100023a2e18eb797018083a7
            c719e39a07f483a7018e638807026f004002ef00c0059307050063860700
            1307100023a2e18e83a7018e1387f7ff23a0e18e83a7018ee39e07fc03a7
            418e930710006318f700930710002326f4feeff08ffdeff00fb48327c4fe
            138507008320c101032481011301010267800000130101fd232611022324
            810213040103232604fe83a7418f6390071a83a7418d1387170023aae18c
            83a7418d2324f4fe832784fe6390070483a7418c83a70700638607007370
            04306f00000083a7418c2322f4fe03a7818c23a2e18c032744fe23a4e18c
            83a7818e1387170023a4e18eef00c06b83a7018f032784fe6360f71083a7
            418c83a7070063960700930710006f00800093070000638807001307f0ff
            23a8e18e6f00800d83a7418c83a7c70083a7c7002320f4fe832704fe83a7
            4700232ef4fc032784fe8327c4fd6378f7000327c4fd23a8e18e6f00400a
            832704fe9387470013850700eff01f8e832704fe83a78702638a07008327
            04fe9387870113850700eff05f8c832704fe03a7c70283a7818d63f8e700
            832704fe03a7c70223ace18c832704fe03a7c7029307070093972700b387
            e7009397270037970180130707113387e700832704fe9387470093850700
            13050700eff04ff1832704fe03a7c70283a7018c83a7c702e36af7f09307
            10002326f4fe6ff09ff083a7018c03a7c702b79601809307070093972700
            b387e7009397270013870611b387e70003a707009307100063fee7009307
            10002326f4fe6f00000183a7018e1387170023a0e18e83a7418e63860700
            930710002326f4fe8327c4fe138507008320c10203248102130101036780
            0000130101fe232e81001304010283a7418f638807001307100023a2e18e
            6f00000c23a2018e6f00000283a7818d63960700737004306f00000083a7
            818d1387f7ff23ace18c03a7818db79601809307070093972700b387e700
            9397270013870611b387e70083a70700e38007fc03a7818d930707009397
            2700b387e700939727003797018013070711b387e7002326f4fe8327c4fe
            83a7470003a747008327c4fe23a2e7008327c4fe03a747008327c4fe9387
            8700631cf7008327c4fe83a7470003a747008327c4fe23a2e7008327c4fe
            83a7470003a7c70023a0e18c130000000324c10113010102678000001301
            01fe232e1100232c8100130401022326a4feef008021b797018003a70711
            9307100063f4e700eff08fcbef00900f6ff05ffe130101fc232e1102232c
            810213040104232ea4fc232cb4fc232ac4fc2328d4fc930707002317f4fc
            232604fe6f004004032784fd8327c4feb307f700038707008326c4fd8327
            c4feb387f600238ae702032784fd8327c4feb307f7008387070063800702
            8327c4fe938717002326f4fe0327c4fe9307f000e3fce7fa6f0080001300
            00008327c4fda3810704032744fd9307400063f6e70093074000232af4fc
            8327c4fd032744fd23a6e7028327c4fd032744fd23a8e7048327c4fd23aa
            07048327c4fd9387470013850700eff0cfc68327c4fd9387870113850700
            eff0cfc58327c4fd0327c4fd23a8e70013075000832744fd3307f7408327
            c4fd23ace7008327c4fd0327c4fd23a2e7028327c4fd23a207048327c4fd
            23ac07048327c4fd23ae0704130000008320c10303248103130101046780
            0000130101fe232e1100232c810013040102232604fe6f0080030327c4fe
            9307070093972700b387e700939727003797018013070711b387e7001385
            0700eff00fb68327c4fe938717002326f4fe0327c4fe93074000e3f2e7fc
            b797018013854717eff0cfb3b797018013858718eff00fb3b79701801385
            c719eff04fb2b79701801385071beff08fb1b79701801385471ceff0cfb0
            379701801307471723a2e18c379701801307871823a4e18c130000008320
            c101032481011301010267800000130101fe232e1100232c810013040102
            6f004007eff01f96b797018083a7071b93b7170093f7f70f2326f4feeff0
            1f978327c4fe63980704efe05fdbb79701809387071b83a7c70083a7c700
            2324f4fe832784fe9387470013850700eff08fc683a7018d1387f7ff23a8
            e18c83a7c18c1387f7ff23a6e18cefe09fda032584feef00801683a7c18c
            e39607f8130000008320c101032481011301010267800000130101fe232e
            1100232c8100130401022326a4fe83a7018c0327c4fe23a2e70083a7418d
            0327c4fe6370f70203a7818c83a7018c938747009385070013050700eff0
            0fb16f00000303a7418c83a7018c938747009385070013050700eff04faf
            83a7018f0327c4fe6376f7000327c4fe23a8e18e130000008320c1010324
            81011301010267800000130101fd23261102232481021304010393070500
            232cb4fc231ff4fc832784fd639e07008357e4fd9397270013850700efe0
            df92930705006f008000832784fd2324f4fe832784fe638a070213050006
            efe0df902326a4fe8327c4fe638a07008327c4fe032784fe23a8e7026f00
            4001032584feefe05fac6f008000232604fe8327c4fe638207028327c4fe
            03a707038357e4fd93972700138607009305500a13050700eff00fb98327
            c4fe138507008320c102032481021301010367800000130101fe232e1100
            232c8100130401022326a4fe8327c4fe83a7070313850700efe09fa50325
            c4feefe01fa5130000008320c101032481011301010267800000130101fe
            232e81001304010283a7418c83a7070063960700930710006f0080009307
            0000638807001307f0ff23a8e18e6f00000283a7418c83a7c70083a7c700
            2326f4fe8327c4fe03a7470023a8e18e130000000324c101130101026780
            0000130101fe232e1100232c8100130401022326a4fe8327c4fe93e70710
            13062000938507001385818fefe04fba8327c4fe93e70710130620009385
            070013850190efe0cfb8930500001385818fefe00ff3930510001385818f
            efe04ff2130600009305200013850190efe08fcd13060000930530001385
            0190efe08fcc130600009305400013850190efe08fcb1306000093055000
            13850190efe08fca930610001306a0018325c4fe13858190efe04f8a1300
            00008320c101032481011301010267800000130101ff2326110023248100
            13040101130610009305200013850190efe00fc6130000008320c1000324
            81001301010167800000130101ff23261100232481001304010113060000
            9305200013850190efe0cfc2130000008320c10003248100130101016780
            0000130101ff232611002324810013040101130610009305300013850190
            efe08fbf130000008320c100032481001301010167800000130101ff2326
            11002324810013040101130600009305300013850190efe04fbc13000000
            8320c100032481001301010167800000130101ff23261100232481001304
            0101130610009305400013850190efe00fb9130000008320c10003248100
            1301010167800000130101ff232611002324810013040101130600009305
            400013850190efe0cfb5130000008320c100032481001301010167800000
            130101fe232e1100232c8100130401022326a4fe93870500a305f4fe0347
            b4fe93071000631af7008325c4fe13858190efe00f8f6f00400113061000
            8325c4fe13858190efe08f82130000008320c10103248101130101026780
            0000130101fe232e810013040102f32740f12324f4fe832784fe2322f4fe
            232604fe6f00c00337070040832744fe939657008327c4feb386f600b717
            000093870780b387f60093972700b307f70023a007008327c4fe93871700
            2326f4fe8327c4fee38207fc232604fe6f004002370700408327c4fe9397
            2700b307f70023a007008327c4fe938717002326f4fe0327c4fe9307e001
            e3fce7fc37070040832744fe938707209397c700b307f70023a00700b717
            000093870780f3a747302320f4fe130000000324c1011301010267800000
            130101ff2326810013040101130000000324c10013010101678000001301
            01ff2326810013040101130000000324c1001301010167800000130101ff
            2326810013040101130000000324c1001301010167800000130101ff2326
            11002324810013040101eff0dfec37050070eff0dfc6b707008083a70701
            9305100013850700eff05fe583a741819305100013850700eff05fe49308
            0000130800009307000013071000930600001306803eb73500609385c5fa
            37350060130585e2efe09ffd930800001308000093070000130730009306
            00001306803eb7350060938545fb37350060130585e5efe0dffa93080000
            130800009307000013072000930600001306803eb73500609385c5fb3735
            0060130585e8efe01ff8eff0cfa193070000138507008320c10003248100
            1301010167800000130101ff2326810013040101737004306f0000001301
            01ff2326810013040101130000000324c1001301010167800000130101fe
            232e1100232c8100130401022326a4feeff05fcf1305d000eff00f93eff0
            dfd11305d000eff04f926ff09ffe130101fe232e1100232c810013040102
            2326a4feeff0dfc513054000eff00f90eff05fc813054000eff04f8f6ff0
            9ffe130101fe232e1100232c8100130401022326a4feeff05fbc1305a000
            eff00f8deff0dfbe1305a000eff04f8c6ff09ffe00000000000000006865
            6c6c6f00000049444c45000000000a0d28432920436f7079726967687420
            323031392046757475726520456c656374726f6e696373202d2043726561
            7469766520426f6172640a0d00000a0d4672656552544f532053696d706c
            652044656d6f0a0d2020546869732064656d6f2063726561746573203320
            626c696e6b696e67204c4544207461736b7320616e642061637469766174
            6520746865204672656552544f530a0d20207363686564756c65722e204c
            454431205265642c204c45443220477265656e20616e6420526564207368
            6f756c6420737461727420626c696e6b696e672e0a0d00004c4544310000
            00004c454432000000004c45443300000000000000000000000000000000
            fc8f0100aaaaaaaaf8bf004400400044d02e00600c2f0060000000000000
            00007406006094060060b4060060d4060060f40600601407006034070060
            540700607407006094070060b4070060d4070060f4070060140800603408
            0060540800607408006094080060b4080060d4080060f408006014090060
            34090060540900607409006094090060b4090060d4090060f4090060fc2c
            0060e02c0060c42c0060
            <crc>
                f585
            </crc>
        </region>
        <region name="ACTEL_INIT_CONFIG_ENVM" address="0x07d000" retrieveAddressFromFile="false" size="688" format="HEX" type="Data Storage" wordSize="32" numberWords="172" memFile="C:\Users\cheec\Desktop\Master\RISC-V_FreeRTOS_Computer_Vision\SCCB Testing\IGL2_MiV_FreeRTOS_Demo\designer\Top_Level\Top_Level.efc.init.mem" memType="BINARY" memFileTimeStamp="1611802748" clientType="private" program="true">
            040024000008024000000000240024000808024008110000900200000200
            000000000000010000009f0900000000000033330000ffff000004002400
            7808024000330000b00024002c08024077770000ff0f0000010000000042
            000008000000520900004400000000000000000000008002000065000000
            e501000002000000280000007801000023000000330d0000040000000000
            00000033000000000000000000000c040000000000000000000000000000
            020000000000000080200000f880000007000000f8800000070000000002
            000000000000010000000400000003000000400000000000000000000000
            00000000000000000903000004002400e008024000000000040024004009
            02400000000020012400000a024000000000000000000000000000000000
            000000000000000000000000000000000000000080000000000000000000
            00000300000000000000000000000000000000000000000000000b000000
            000000000000000000000000000000008000000004200000000100000800
            000000000000000000000000000000000000000000000100000000000000
            000000000000000000000000000000005040000001050000145000000000
            000008000000180000000000000005000000000000000000000000000000
            000000000000000000000000000000000000000050000000010500001050
            000000000000000000000000000000000000000000000000000043000000
            000000000300000001000000010000000000000000000000000000000100
            000020002400000c02400000000000000000000000000000000000000000
            0000000000000000000000000c002400400c024000000000000000000000
            000004002400dc0802400100000000000002e40802400800000008000000
            04002400002002400100000004002480002002400300000000000000
            <crc>
                cbff
            </crc>
        </region>
    </nvm>
</Actel_Data_File>
